time (sec),Ca(mol/kgw),Mg(mol/kgw),Na(mol/kgw),Sr(mol/kgw),Cl(mol/kgw),S(6)(mol/kgw),Fe(mol/kgw)
17.93,5.612173104955829e-09,4.306014185788543e-09,2.6498768607721033e-08,4.635177589157509e-11,3.128251323578443e-08,7.317253928589475e-09,1.1188102118616818e-12
18.74,1.0722778867765503e-08,8.227194181679722e-09,5.062930717469778e-08,8.856103219173595e-11,5.976926683867107e-08,1.398055518392123e-08,2.137630873537561e-12
19.56,1.960380946998146e-08,1.5041282600263026e-08,9.256250676165313e-08,1.6191079038016964e-10,1.0927254340660537e-07,2.5559805297679217e-08,3.908101517224799e-12
20.37,3.447404325321388e-08,2.6450666526793923e-08,1.6277468247256668e-07,2.847262721704736e-10,1.9215991634475348e-07,4.4947888048248655e-08,6.872544897412062e-12
21.19,5.856475038086397e-08,4.493458081406656e-08,2.7652279070700945e-07,4.836950204552315e-10,3.264426354425973e-07,7.63577925675228e-08,1.1675128253507016e-11
22.00,9.645935428427977e-08,7.400971782807945e-08,4.5544819474210275e-07,7.966722139206516e-10,5.376689155315119e-07,1.2576547014606416e-07,1.922957624160587e-11
22.82,1.5450730594537338e-07,1.1854777797592405e-07,7.29530838034456e-07,1.2760989165617646e-09,8.612308909356641e-07,2.0144945109163521e-07,3.08016785060097e-11
23.63,2.4131873980472945e-07,1.851550010063299e-07,1.1394248408254588e-06,1.99308751470784e-09,1.3451218504514945e-06,3.146357861483624e-07,4.810790140609089e-11
24.45,3.6834532080480714e-07,2.8261782860078753e-07,1.7392010619087515e-06,3.042219019505783e-09,2.0531739057111386e-06,4.80255365494081e-07,7.343118230690084e-11
25.26,5.505512868411705e-07,4.224177705867302e-07,2.5995155323740623e-06,4.547085306749853e-09,3.068798412935448e-06,7.178188361601491e-07,1.0975470470210255e-10
26.08,8.071770840961886e-07,6.193173142668193e-07,3.8112150813873846e-06,6.6665960951569705e-09,4.499242511713641e-06,1.0524122437447403e-06,1.6091413211579724e-10
26.89,1.1625962356886436e-06,8.920173682453199e-07,5.489383177900017e-06,9.602055952523231e-09,6.480365350596488e-06,1.5158142334284464e-06,2.3176842845632544e-10
27.71,1.647264232386809e-06,1.263885311402177e-06,7.777820269192033e-06,1.3605001325846774e-08,9.181927247957408e-06,2.1477332310391415e-06,3.283890233538102e-10
28.52,2.298756345218164e-06,1.7637512683706303e-06,1.085394397829638e-05,1.8985771990676036e-08,1.2813374507620983e-05,2.9971605621118115e-06,4.5826670445018805e-10
29.34,3.16288939036281e-06,2.426768798517038e-06,1.493408569550723e-05,2.612277587490817e-08,1.7630092188431926e-05,4.123833029471249e-06,6.305352459285924e-10
30.15,4.294920680803006e-06,3.2953348074821025e-06,2.0279151619402766e-05,3.54723913795341e-08,2.3940087116335302e-05,5.599796128318908e-06,8.562104245458035e-10
30.97,5.760815726170883e-06,4.420062206688314e-06,2.7200608403478737e-05,4.757943750102123e-08,3.211105410216279e-05,7.511056896477763e-06,1.148442740905929e-09
31.78,7.638574735676345e-06,5.860797690289795e-06,3.6066746450858545e-05,6.3088129617117e-08,4.257776993048407e-05,9.959313433168572e-06,1.522781863374392e-09
32.60,1.0019606675070295e-05,7.687675998586026e-06,4.7309167742953775e-05,8.275342802853384e-08,5.584975241686138e-05,1.3063746419607089e-05,1.9974505520879996e-09
33.41,1.3010138555904776e-05,9.982201213882125e-06,6.142944002302313e-05,1.074526774894355e-07,7.251911585156284e-05,1.6962856576114094e-05,2.5936256066709533e-09
34.23,1.6732646814098035e-05,1.2838345004661238e-05,7.900585527790043e-05,1.381974291767927e-07,9.326854957008457e-05,2.1816330919665367e-05,3.3357232175463036e-09
35.04,2.1327297076963975e-05,1.6363651305917265e-05,0.0001007002278271936,1.7614533194131942e-07,0.00011887934328136572,2.7806919958475105e-05,4.251685989522958e-09
35.86,2.695337832729817e-05,2.0680336700554914e-05,0.0001272646659572927,2.2261197728286046e-07,0.00015023938116493288,3.514230758135849e-05,5.37326884841232e-09
36.67,3.379071744608301e-05,2.5926375746025533e-05,0.0001595482509099063,2.790825822698672e-07,0.00018835102659756146,4.4056955364380034e-05,6.73632103604068e-09
37.49,4.204106034119323e-05,3.225656066362863e-05,0.00019850355810107959,3.4722339648765454e-07,0.00023433882062874812,5.4813903311717505e-05,8.381061444040592e-09
38.30,5.1929406331326215e-05,3.984352516226544e-05,0.0002451929576273155,4.2889272291458345e-07,0.0002894569198986428,6.770650964983274e-05,1.0352344628875872e-08
39.11,6.370528313025226e-05,4.887872268700041e-05,0.0003007946343066546,5.261514482074128e-07,0.00035509620345940617,8.306011317525474e-05,1.269991498529127e-08
39.93,7.764395064019081e-05,5.957335004548169e-05,0.00036660827158070507,6.41272985010588e-07,0.00043279098277533166,0.00010123360278239768,1.547864672756343e-08
40.74,9.404752278535289e-05,7.215920814959294e-05,0.0004440603484302788,7.767525373470172e-07,0.0005242252548750509,0.00012262088013064928,1.87487675317159e-08
41.56,0.00011324599776605286,8.688949249157289e-05,0.0005347090038841678,9.35315609640664e-07,0.0006312384450357503,0.00014765220290852328,2.2576063920990656e-08
42.37,0.0001355981883577665,0.00010403950692829631,0.0006402484295742229,1.11992569019541e-06,0.0007558305923132791,0.00017679539777458515,2.7032066724861734e-08
43.19,0.00016149254518545579,0.0001239072953494083,0.0007625127569561138,1.333791050740666e-06,0.000900166938511418,0.00021055693375757043,3.21942152022194e-08
44.00,0.00019134786723943862,0.00014681418683004223,0.0009034794121231193,1.580370614688059e-06,0.0010665818886303189,0.0002494828486399717,3.814599868568444e-08
44.82,0.00022561389523459625,0.00017310525089353387,0.0010652719174460271,1.8633788577737522e-06,0.0012575823182782104,0.00029415952259062323,4.49770748702511e-08
45.63,0.00026477178472128433,0.00020314966051203901,0.001250162125441666,2.186789715552123e-06,0.0014758502108136143,0.0003452142950153601,5.27833641299289e-08
46.45,0.0003093344571084057,0.0002373409614336335,0.0014605718761841638,2.554839482547732e-06,0.0017242446139642078,0.00040331592222731774,6.166711949566135e-08
47.26,0.0003598468279336413,0.00027609724732567843,0.0016990740751192108,2.972028697573286e-06,0.002005802912215683,0.00046917487506983435,7.173697216195346e-08
48.08,0.00041688591279371114,0.00031986124105121274,0.001968393193230637,3.443123018623451e-06,0.002323741417271955,0.0005435434770302672,8.310795260451267e-08
48.89,0.00048106081231253864,0.0003691002831355805,0.0022714051960652003,3.973153098724702e-06,0.0026814552842669725,0.0006272158846412008,9.590148758358885e-08
49.71,0.0005530125783649991,0.00042430622912482713,0.0026111369120867243,4.567413481057273e-06,0.00308251776608973,0.0007210279130605348,1.1024537347511859e-07
50.52,0.0006334139644984936,0.00048599525807882987,0.002990764854162521,5.231460537493397e-06,0.0035306788221170634,0.0008258567106608091,1.2627372651245043e-07
51.34,0.0007229690639199008,0.000554707594876338,0.0034136135106571292,5.971109479370183e-06,0.004029863100803606,0.0009426202870554595,1.4412691063424426e-07
52.15,0.0008224128384558265,0.0006310071493342939,0.0038831531246097447,6.792430472815747e-06,0.004584167317940652,0.0010722768991587618,1.639514437186457e-07
52.97,0.0009325105424325596,0.0007154810753604946,0.004402996980805034,7.701743893280328e-06,0.005197857053969854,0.001215824300500564,1.858998830401173e-07
53.78,0.001054057041783787,0.0008087392534694029,0.004976898221228558,8.705614755117945e-06,0.005875362994542201,0.0013742988554223744,2.101306908140979e-07
54.60,0.0011878760244155295,0.0009114137000000989,0.0056087462094548965,9.81084635301301e-06,0.006621276638579832,0.0015487745155072995,2.3680808069705127e-07
55.41,0.001334819094120804,0.0010241579062890654,0.006302562463984792,1.1024473141350362e-05,0.007440345497470553,0.0017403616518153826,2.6610184608701824e-07
56.23,0.0014957647377640151,0.001147646110875746,0.007062496179473103,1.2353752844830025e-05,0.008337467807756183,0.0019502057338233502,2.9818717102441483e-07
57.04,0.0016716171671637841,0.0012825725075636411,0.007892819353218075,1.3806157759461637e-05,0.009317686777821419,0.0021794858575439145,3.332444244264945e-07
57.86,0.0018633049931393512,0.001429650391835937,0.008797921532290982,1.5389365184287955e-05,0.010386184386738145,0.002429413081192852,3.7145893830477466e-07
58.67,0.002071779680631326,0.0015896112477400864,0.00978230419431769,1.7111246848970436e-05,0.011548274750626093,0.0027012285179941263,4.1302077051480086e-07
59.49,0.002298013737931955,0.0017632037769206802,0.010850574772246675,1.8979856933784832e-05,0.012809397068729876,0.0029962011394018464,4.581244524745995e-07
60.30,0.0025429986045709995,0.0019511928710047224,0.012007440330513817,2.100341824583817e-05,0.014175108157960371,0.0033156252533126356,5.069687221646651e-07
61.12,0.002807742245427608,0.0021543585280364985,0.01325770089689381,2.3190306169816333e-05,0.015651074580964996,0.00366081766472579,5.597562425906275e-07
61.93,0.0030932663357850308,0.002373494713145068,0.014606242451165187,2.5549030123051466e-05,0.017243064369056923,0.004033114403368333,6.166933057561649e-07
62.75,0.003400602737073135,0.002609408163120368,0.016058029568594454,2.808821212939444e-05,0.018956938337649314,0.004433866717519544,6.779895220619679e-07
63.56,0.0037307892135266126,0.0028629171340415777,0.017618097712969853,3.0816559450369966e-05,0.02079864098797301,0.0048644362808715706,7.438574949082627e-07
64.38,0.004084864442585253,0.003134850090583469,0.01929154517072743,3.3742830623541644e-05,0.02277419098509415,0.005326189664072884,8.145124801438018e-07
65.19,0.004463862437136585,0.003426044335127572,0.02108352461464199,3.68757951967932e-05,0.02488967119862312,0.005820492188622212,8.901720298746471e-07
66.01,0.004868807458760058,0.0037373445742102628,0.02299923428189604,4.022418805851475e-05,0.027151218288186393,0.006348702242221197,9.710556199915359e-07
66.82,0.0053007041360525085,0.004069601420254618,0.02504390875389168,4.379666353043105e-05,0.02956501181874484,0.006912160774041606,1.05738426088231e-06
67.64,0.005760525837302926,0.004423669825355019,0.027222809317922134,4.760170994804113e-05,0.03213726288228637,0.007512178978655339,1.1493800904899992e-06
68.45,0.006249202528890315,0.0048004074436555945,0.029541213889416894,5.1647549789663254e-05,0.03487420220076342,0.008150025423729498,1.247265948817732e-06
69.27,0.0067676090239170645,0.0052006729185771535,0.032004406471712474,5.594203565610653e-05,0.037782067683067695,0.00882691353485859,1.3512649329074952e-06
70.08,0.007316573484707657,0.005625324087036311,0.03461766610500156,6.049254961809103e-05,0.04086709137896505,0.009544009305653793,1.4615999302512946e-06
70.90,0.007896816589312522,0.006075216114092689,0.03738625538714341,6.530599254194654e-05,0.044135485927602,0.010302369735016068,1.5784931341258505e-06
71.71,0.008508919330945148,0.006551199538940968,0.04031540844890017,7.038829089142793e-05,0.0475934303619468,0.0111029093806674,1.7021655358924367e-06
72.53,0.009153303728183645,0.007054118229811753,0.04341031836860675,7.574414600979991e-05,0.05124705525146676,0.01194638003083742,1.832836393628977e-06
73.34,0.009830223641771623,0.0075848072437036404,0.04667612400118252,8.137688548849374e-05,0.055102427153420154,0.012833360547975639,1.970722676034877e-06
74.16,0.010539948933513569,0.008144090532682613,0.05011789586293266,8.728839588521362e-05,0.05916553194948224,0.013764440076803594,2.1160384664702326e-06
74.97,0.011282100896505906,0.008732778793218854,0.05374062289658877,9.347982379789578e-05,0.0634422592215181,0.014739553347158206,2.268994404159721e-06
75.78,0.012055830215935034,0.009351667014314474,0.057549197382739226,9.994659093390689e-05,0.06793838443911737,0.015758152705368053,2.4297970471348726e-06
76.60,0.012859940331957316,0.010001531923245497,0.06154839922118677,0.00010668052083108752,0.07265955040331201,0.01681933261992308,2.598648208573874e-06
77.41,0.013692980716052187,0.010683129324016844,0.0657428795520755,0.00011367071195021363,0.07761124791087351,0.017921922805660725,2.7757442652656684e-06
78.23,0.014555203366664719,0.011397190553161376,0.0701371389452409,0.00012090430921397999,0.08279879000625033,0.01906644412567797,2.961275236737814e-06
79.04,0.015439203390438755,0.012144423470340938,0.07473553349626906,0.00012836507765298454,0.08822731917813124,0.020245748127802218,3.1554250426394445e-06
79.86,0.016339777724939143,0.012925505938449124,0.07954223470371766,0.00013599488838322897,0.09390175999341879,0.021454834741747284,3.358369808708874e-06
80.67,0.017252461138573077,0.013741083212906572,0.08456121340310817,0.00014375189528942136,0.0998268001308726,0.02268944545004276,3.570277188447165e-06
81.49,0.018173474024255717,0.014591764721003885,0.08979621994733292,0.00015160022156163465,0.10600686698354364,0.02394599952759991,3.7913055263108433e-06
82.30,0.01948161493020479,0.015477907587332857,0.09524945204440609,0.0001627405156062771,0.11244455500519929,0.025606633739780903,4.021547612203326e-06
83.12,0.02036658241498857,0.016400479091834442,0.10092686223565914,0.00017070510205542685,0.11914689133192001,0.02685495157778479,4.261254769652212e-06
83.93,0.02121363922415399,0.017359761209245154,0.10683018576462003,0.0001781107354643669,0.1261159244656362,0.028078941161813566,4.5105002627485244e-06
84.75,0.021905949596209267,0.01835626674427349,0.11296257837874298,0.000185208306357747,0.13335537985159213,0.029162215159511572,4.769417330984591e-06
85.56,0.022136403302982898,0.01939060623339549,0.11932779725673594,0.00018822169277263936,0.14086969294089813,0.02979412240682145,5.038164607011033e-06
86.38,0.022367394622024257,0.020462814518586527,0.12592605681252964,0.00019019354036125844,0.14865911685500138,0.030440113248498896,5.316751143644867e-06
87.19,0.022598387891167696,0.02157315608875592,0.1327589846836845,0.00019216693596964677,0.1567255730640757,0.03110079699356956,5.605245661721572e-06
88.01,0.02282913491461169,0.02272183146602195,0.13982781486270127,0.00019413977635487749,0.16507051832965275,0.03177600058654839,5.903700261904108e-06
88.82,0.023059389907889204,0.023908973829755483,0.14713336692173629,0.00019610997408362239,0.17369492017883553,0.03246552745784894,6.212149547524859e-06
89.64,0.02328890986466772,0.02513464550750535,0.1546760244181174,0.00019807546043615673,0.1825992314114262,0.03316915654174893,6.530609712840258e-06
90.45,0.0235174549259827,0.02639883454903961,0.16245571381134594,0.00020003418830863835,0.19178336521087663,0.03388664132880513,6.859077652881141e-06
91.27,0.0237447887529376,0.027701451412800653,0.1704718840718819,0.0002019841351295288,0.2012466710719072,0.034617708965052216,7.197530102510669e-06
92.08,0.02397067890379144,0.02904232579590195,0.17872348717326994,0.00020392330580617553,0.21098791177093457,0.03536205941091296,7.545922812778383e-06
92.90,0.02419489721623223,0.030421203640416197,0.18720895966914472,0.00020584973571738954,0.221005241617227,0.03611936467325,7.90418977307881e-06
93.71,0.024417220195484184,0.03183774435006637,0.1959262055650332,0.00020776149376716227,0.2312961862326042,0.03688926812436214,8.272242487978244e-06
94.53,0.024637429409194007,0.03329151825248681,0.20487258070137104,0.00020965668551756704,0.24185762411516587,0.03767138392243628,8.64996931784674e-06
95.34,0.024855311885944205,0.03478200434292423,0.21404487886847032,0.00021153345638412198,0.25268577024763467,0.03846529654410029,9.037234892614995e-06
96.16,0.025070660527504316,0.03630858834552713,0.22343931987589336,0.00021338999498943085,0.26377616201293047,0.039270560453216356,9.433879608049102e-06
96.97,0.02528327451752328,0.03787056112824596,0.23305153979790996,0.0002152245365375266,0.27512364767866754,0.04008669990234526,9.839719213901786e-06
97.79,0.025492959742840573,0.03946711750669644,0.2428765836125067,0.0002170353663551414,0.286722377707306,0.04091320889683682,1.0254544503126476e-05
98.60,0.025699529216125814,0.04109735547103482,0.2529089004441379,0.0002188208235117375,0.29856579914009473,0.041749551323253815,1.0678121110998527e-05
99.42,0.025902803501525847,0.04276027586869248,0.263142341610393,0.00022057930453918818,0.3106466532911082,0.042595161256563596,1.1110189432685108e-05
100.2,0.026102611140881745,0.04445478257245203,0.2735701616570509,0.00022230926723567677,0.3229569769691532,0.04344944345487247,1.1550464666912774e-05
101.0,0.026298789077805314,0.04617968316161455,0.284185022549709,0.0002240092345345296,0.335488107426096,0.04431177404976628,1.1998636992952374e-05
101.9,0.02649118307660281,0.04793369013975716,0.2949790011676365,0.00022567779841447885,0.3482306912034466,0.045181501438179096,1.2454371887021594e-05
102.7,0.02667964813238661,0.04971542270854565,0.30594360022013867,0.0002273136238206084,0.36117469701982124,0.04605794737994068,1.2917310583170537e-05
103.5,0.026864048868593768,0.05152340911309568,0.31706976267882214,0.00022891545256237524,0.3743094328081104,0.046940408302379694,1.3387070682659843e-05
104.3,0.02704425991729755,0.05335608956798225,0.3283478897845391,0.00023048210714619915,0.3876235669734565,0.047828156811755076,1.3863246914213936e-05
105.1,0.0272201662777615,0.05521181976861639,0.3397678626558932,0.00023201249449883262,0.4011051539026144,0.04872044340812497,1.4345412046363893e-05
105.9,0.027391663648261903,0.057088874985916305,0.3513190674874319,0.0002335056095323873,0.4147416637111028,0.04961649839805419,1.4833117951345661e-05
106.8,0.0275586587261277,0.058985454736100174,0.362990424287064,0.00023496053849961717,0.4285200161685016,0.05051553399686837,1.5325896818428696e-05
107.6,0.027721069470915922,0.060899688010791486,0.3747704190615965,0.00023637646208630062,0.4424266186943481,0.05141674660962272,1.582326251282866e-05
108.4,0.027878825325743224,0.06282963904591975,0.3866471393179494,0.0002377526581871774,0.45644740826828245,0.05231931927745958,1.632471207461169e-05
109.2,0.02803186739200988,0.064773313601154,0.39860831270614977,0.00023908850431265412,0.47056789704914714,0.053222424273654034,1.6829727350248628e-05
110.0,0.02818014855310987,0.06672866571497708,0.4106413485893618,0.00024038347957575296,0.4847732214495318,0.05412522583144724,1.7337776747752117e-05
110.8,0.02832363354318008,0.06869360489409226,0.42273338228675567,0.0002416371662121538,0.4990481943656773,0.055026882983762515,1.7848317104664436e-05
111.6,0.028462298957535326,0.07066600368978652,0.43487132169767007,0.00024284925059101824,0.5133773602185608,0.055926552493159004,1.836079565658612e-05
112.5,0.028596133202121465,0.07264370560827896,0.4470418959810808,0.00024401952368022199,0.5277450524213261,0.056823391848911796,1.8874652092482546e-05
113.3,0.02872513638009913,0.07462453329706646,0.45923170593353363,0.0002451478809366133,0.5421354528517941,0.05771656230696645,1.9389320681701022e-05
114.1,0.028849320114521394,0.07660629694495762,0.47142727568208503,0.00024623432159989533,0.5565326528773816,0.05860523194770528,1.9904232456510117e-05
114.9,0.028968707306968527,0.0785868028299532,0.483615105287084,0.00024727894737731215,0.5709207154541037,0.059488578726014776,2.0418817433052748e-05
115.7,0.02908333183293794,0.0805638619464682,0.49578172383320557,0.0002482819605155181,0.5852837378019803,0.06036579348805797,2.093250685291386e-05
116.5,0.029193238175716164,0.08253529864166116,0.5079137425765382,0.00024924366126534235,0.5996059141466054,0.061236082929430655,2.1444735427055866e-05
117.3,0.02929848100138358,0.08449895918989127,0.5199979077109088,0.0002501644447546487,0.6138715980112246,0.06209867247002387,2.1954943563675845e-05
118.2,0.029399124678473068,0.0864527202345787,0.5320211523182217,0.00025104479729363245,0.6280653635455159,0.06295280902189476,2.246257956161308e-05
119.0,0.029495242746617124,0.08839449702800815,0.5439706470753649,0.00025188529214568983,0.642172065386462,0.0637977636277582,2.296710175125554e-05
119.8,0.0295869173392461,0.09032225140187262,0.5558338493041166,0.00025268658480501785,0.6561768965630952,0.06463283394931219,2.3467980565486888e-05
120.6,0.02967423856603036,0.09223399940455643,0.5675985499701993,0.00025344940782938896,0.6700654439801481,0.06545734658648741,2.3964700524043592e-05
