time (sec),Ca(mol/kgw),Mg(mol/kgw),Na(mol/kgw),Sr(mol/kgw),Cl(mol/kgw),S(6)(mol/kgw),Fe(mol/kgw)
17.93,5.612173104955853e-09,4.306014185788543e-09,2.6498768607721033e-08,4.635177589157509e-11,3.1282513235784495e-08,7.317253928589504e-09,1.1188102118616818e-12
18.74,1.0722778867765503e-08,8.227194181679722e-09,5.062930717469767e-08,8.856103219173595e-11,5.976926683867119e-08,1.3980555183921316e-08,2.137630873537552e-12
19.56,1.960380946998146e-08,1.5041282600263026e-08,9.256250676165277e-08,1.6191079038016964e-10,1.0927254340660559e-07,2.5559805297679372e-08,3.908101517224799e-12
20.37,3.447404325321388e-08,2.6450666526793873e-08,1.6277468247256602e-07,2.847262721704736e-10,1.9215991634475348e-07,4.494788804824893e-08,6.872544897412062e-12
21.19,5.856475038086397e-08,4.493458081406647e-08,2.7652279070700834e-07,4.836950204552296e-10,3.2644263544259735e-07,7.635779256752311e-08,1.1675128253507016e-11
22.00,9.645935428427977e-08,7.400971782807915e-08,4.5544819474210095e-07,7.966722139206483e-10,5.376689155315119e-07,1.257654701460644e-07,1.922957624160587e-11
22.82,1.545073059453734e-07,1.1854777797592356e-07,7.295308380344531e-07,1.2760989165617594e-09,8.612308909356623e-07,2.0144945109163564e-07,3.08016785060097e-11
23.63,2.4131873980472945e-07,1.8515500100632953e-07,1.1394248408254564e-06,1.993087514707824e-09,1.3451218504514918e-06,3.1463578614836246e-07,4.8107901406091086e-11
24.45,3.6834532080480793e-07,2.8261782860078695e-07,1.7392010619087481e-06,3.042219019505771e-09,2.0531739057111386e-06,4.802553654940802e-07,7.343118230690114e-11
25.26,5.505512868411717e-07,4.2241777058672924e-07,2.5995155323740623e-06,4.547085306749834e-09,3.0687984129354546e-06,7.178188361601463e-07,1.09754704702103e-10
26.08,8.071770840961919e-07,6.19317314266818e-07,3.8112150813873926e-06,6.6665960951569705e-09,4.499242511713659e-06,1.052412243744734e-06,1.609141321157979e-10
26.89,1.1625962356886461e-06,8.92017368245318e-07,5.489383177900029e-06,9.602055952523231e-09,6.4803653505965015e-06,1.5158142334284399e-06,2.3176842845632637e-10
27.71,1.647264232386809e-06,1.2638853114021743e-06,7.777820269192033e-06,1.3605001325846774e-08,9.181927247957426e-06,2.1477332310391284e-06,3.283890233538102e-10
28.52,2.2987563452181735e-06,1.7637512683706269e-06,1.085394397829638e-05,1.8985771990676075e-08,1.2813374507621011e-05,2.997160562111793e-06,4.5826670445018805e-10
29.34,3.162889390362817e-06,2.4267687985170335e-06,1.4934085695507263e-05,2.612277587490817e-08,1.763009218843189e-05,4.1238330294712236e-06,6.305352459285924e-10
30.15,4.2949206808030235e-06,3.2953348074820958e-06,2.0279151619402766e-05,3.547239137953417e-08,2.394008711633525e-05,5.5997961283188635e-06,8.562104245458035e-10
30.97,5.760815726170905e-06,4.420062206688305e-06,2.720060840347868e-05,4.757943750102132e-08,3.211105410216273e-05,7.511056896477718e-06,1.148442740905929e-09
31.78,7.638574735676377e-06,5.8607976902897706e-06,3.6066746450858545e-05,6.308812961711714e-08,4.257776993048398e-05,9.959313433168533e-06,1.522781863374386e-09
32.60,1.0019606675070335e-05,7.687675998585996e-06,4.7309167742953775e-05,8.275342802853384e-08,5.5849752416861265e-05,1.3063746419607036e-05,1.9974505520879914e-09
33.41,1.3010138555904828e-05,9.982201213882084e-06,6.142944002302301e-05,1.0745267748943571e-07,7.251911585156269e-05,1.696285657611406e-05,2.5936256066709425e-09
34.23,1.6732646814098103e-05,1.2838345004661212e-05,7.900585527790043e-05,1.3819742917679324e-07,9.326854957008455e-05,2.1816330919665364e-05,3.3357232175462903e-09
35.04,2.132729707696402e-05,1.636365130591723e-05,0.00010070022782719338,1.7614533194132013e-07,0.00011887934328136572,2.7806919958475105e-05,4.2516859895229235e-09
35.86,2.695337832729817e-05,2.0680336700554873e-05,0.00012726466595729257,2.2261197728286136e-07,0.00015023938116493288,3.514230758135849e-05,5.373268848412297e-09
36.67,3.379071744608308e-05,2.5926375746025483e-05,0.00015954825090990616,2.790825822698678e-07,0.00018835102659756146,4.405695536438004e-05,6.736321036040651e-09
37.49,4.204106034119332e-05,3.2256560663628565e-05,0.00019850355810107918,3.472233964876552e-07,0.00023433882062874812,5.4813903311717505e-05,8.381061444040557e-09
38.30,5.1929406331326323e-05,3.9843525162265276e-05,0.000245192957627315,4.2889272291458435e-07,0.0002894569198986428,6.770650964983274e-05,1.0352344628875852e-08
39.11,6.370528313025253e-05,4.887872268700021e-05,0.0003007946343066537,5.261514482074128e-07,0.00035509620345940617,8.306011317525474e-05,1.2699914985291192e-08
39.93,7.764395064019128e-05,5.957335004548169e-05,0.0003666082715807047,6.41272985010588e-07,0.00043279098277533166,0.00010123360278239768,1.5478646727563336e-08
40.74,9.404752278535326e-05,7.215920814959294e-05,0.0004440603484302788,7.767525373470188e-07,0.0005242252548750509,0.00012262088013064953,1.8748767531715744e-08
41.56,0.00011324599776605355,8.688949249157289e-05,0.0005347090038841683,9.35315609640666e-07,0.000631238445035751,0.00014765220290852404,2.2576063920990474e-08
42.37,0.0001355981883577672,0.0001040395069282961,0.0006402484295742236,1.11992569019541e-06,0.0007558305923132791,0.00017679539777458588,2.703206672486151e-08
43.19,0.00016149254518545644,0.00012390729534940786,0.0007625127569561138,1.333791050740666e-06,0.000900166938511419,0.00021055693375757087,3.219421520221907e-08
44.00,0.0001913478672394396,0.00014681418683004207,0.0009034794121231184,1.5803706146880555e-06,0.0010665818886303189,0.00024948284863997246,3.814599868568413e-08
44.82,0.00022561389523459717,0.00017310525089353384,0.0010652719174460248,1.8633788577737486e-06,0.0012575823182782104,0.0002941595225906239,4.4977074870250825e-08
45.63,0.00026477178472128596,0.000203149660512039,0.0012501621254416635,2.186789715552123e-06,0.0014758502108136143,0.00034521429501536044,5.278336412992847e-08
46.45,0.0003093344571084076,0.00023734096143363372,0.001460571876184161,2.554839482547732e-06,0.0017242446139642076,0.0004033159222273178,6.166711949566072e-08
47.26,0.0003598468279336435,0.0002760972473256789,0.0016990740751192106,2.972028697573286e-06,0.002005802912215685,0.0004691748750698345,7.173697216195302e-08
48.08,0.00041688591279371277,0.0003198612410512147,0.001968393193230637,3.4431230186234514e-06,0.002323741417271955,0.0005435434770302669,8.3107952604512e-08
48.89,0.000481060812312541,0.0003691002831355831,0.0022714051960652003,3.973153098724718e-06,0.002681455284266975,0.0006272158846412009,9.590148758358826e-08
49.71,0.0005530125783650014,0.0004243062291248296,0.0026111369120867243,4.567413481057282e-06,0.003082517766089733,0.0007210279130605333,1.1024537347511791e-07
50.52,0.0006334139644795769,0.00048599525807883274,0.0029907648541625245,5.231460537493407e-06,0.003530678822117067,0.0008258567106418886,1.2627372651244916e-07
51.34,0.0007229690639091761,0.0005547075948763408,0.0034136135106571297,5.971109479370183e-06,0.004029863100803618,0.0009426202870447308,1.4412691063424307e-07
52.15,0.000822412839283184,0.0006310071493342768,0.00388315312460963,6.792430472815523e-06,0.004584167317940516,0.0010722768999861048,1.6395144371863967e-07
52.97,0.0009325105480362376,0.0007154810753603526,0.004402996980804138,7.701743893278785e-06,0.005197857053968801,0.001215824306104178,1.8589988304007815e-07
53.78,0.0010540570679533707,0.000808739253468643,0.004976898221223865,8.705614755107138e-06,0.0058753629945366434,0.0013742988815916512,2.1013069081389808e-07
54.60,0.001187876127182847,0.0009114136999967297,0.005608746209434123,9.810846352106731e-06,0.006621276638555295,0.001548774618272409,2.3680808069617374e-07
55.41,0.001334819442954854,0.0010241579062761992,0.00630256246390558,1.1024473144091689e-05,0.00744034549737701,0.0017403620006472152,2.661018460836708e-07
56.23,0.001495765773015661,0.0011476461108329387,0.007062496179209645,1.2353752922537162e-05,0.008337467807445155,0.0019502067691362097,2.981871710132892e-07
57.04,0.0016716198834538145,0.001282572507438109,0.007892819352445537,1.3806158285701696e-05,0.009317686776909405,0.00217948857431183,3.3324442439387555e-07
57.86,0.0018633114361691942,0.0014296503915040193,0.008797921530248371,1.538936745006786e-05,0.010386184384326778,0.002429419526360611,3.7145893821853125e-07
58.67,0.002071793798730328,0.0015896112469313938,0.009782304189341045,1.711125442077647e-05,0.011548274744751012,0.002701242643353417,4.1302077030467787e-07
59.49,0.0022980427787933156,0.0017632037750755143,0.010850574760891716,1.8979878539003074e-05,0.012809397055325035,0.0029962302011576456,4.5812445199517533e-07
60.30,0.002543055284630955,0.0019511928670194543,0.012007440305988873,2.1003473419067907e-05,0.014175108129008018,0.00331568198701065,5.069687211291883e-07
61.12,0.0028078479126568017,0.0021543585198331755,0.013257700846411402,2.3190435282586434e-05,0.015651074521369147,0.0036609234579077403,5.597562404591969e-07
61.93,0.003093455462140085,0.002373494696968872,0.014606242351618545,2.5549310691277798e-05,0.017243064251539434,0.0040333038040603455,6.166933015531831e-07
62.75,0.0034009293766067445,0.0026094081324052752,0.01605802937957699,2.8088783674263466e-05,0.018956938114509127,0.004434193916766197,6.779895140814209e-07
63.56,0.0037313361107237475,0.0028629170776179897,0.017618097365744993,3.081766223992025e-05,0.020798640578064687,0.004864984259123197,7.438574802480067e-07
64.38,0.0040857554207801095,0.003134849989928401,0.019291544551306633,3.374486425670871e-05,0.022774190253851155,0.005327082637127361,8.145124539911003e-07
65.19,0.004465278576223169,0.0034260441602812037,0.02108352353865557,3.68794026819831e-05,0.024889669928392068,0.005821911867841061,8.90171984445192e-07
66.01,0.004871006489093382,0.0037373442780284237,0.022999232459223615,4.023037011271457e-05,0.02715121613647234,0.006350907340515905,9.710555430360905e-07
66.82,0.005304047757638664,0.004069600929866604,0.02504390573609456,4.380692262740967e-05,0.02956500825615373,0.006915514465821351,1.0573841334672462e-06
67.64,0.005765516619891211,0.0044236690296915624,0.02722280442149138,4.7618262884395984e-05,0.03213725710191738,0.007517186007680783,1.1493798837567362e-06
68.45,0.0062565308125673005,0.0048004061758108,0.02954120608723085,5.167362243815495e-05,0.034874192990071766,0.00815737929166582,1.2472656193999518e-06
69.27,0.006778209330314631,0.0052006709316964,0.032004394244653164,5.5982243232611834e-05,0.03778205324869339,0.008837553283462139,1.3512644166661867e-06
70.08,0.00733167008009397,0.0056253210262781845,0.034617647269411425,6.055335822832272e-05,0.040867069143041335,0.009559165530609202,1.461599134989778e-06
70.90,0.007918027425351127,0.00607521146967723,0.03738622680588912,6.539617111942521e-05,0.04413545218665817,0.010323668960547,1.5784919273905377e-06
71.71,0.008538389614623847,0.006551192580270334,0.04031536562595774,7.051983509611714e-05,0.04759337980830498,0.011132508527986461,1.7021637278557417e-06
72.53,0.0091938560893433,0.007054107919065105,0.04341025491733353,7.593343060938847e-05,0.05124698034552249,0.011987117704771968,1.8328337146390793e-06
73.34,0.009885514665843852,0.007584792127559496,0.04667603097798755,8.164594209681742e-05,0.055102317337022276,0.012888914805734017,1.9707187484824995e-06
74.16,0.010614438586993796,0.008144068665566552,0.050117761294951144,8.766623363154973e-05,0.05916537308834007,0.013839299144551613,2.116032784846469e-06
74.97,0.011381683439414612,0.00873274744590999,0.053740429988476314,9.400302346115239e-05,0.06344203148827311,0.014839647014366217,2.2689862593447145e-06
75.78,0.012188283932973644,0.009351622363447212,0.05754892260589697,0.0001006648574089609,0.06793806005762223,0.01589130748882547,2.4297854457225873e-06
76.60,0.013035250540121177,0.010001468716556229,0.061548010253724875,0.00010766008111786334,0.07265909121670136,0.016995598040389418,2.5986317858948323e-06
77.41,0.013923565993706059,0.010683040520038241,0.06574233306152816,0.000114996811125237,0.07761060276399914,0.01815379997411841,2.7757211917705093e-06
78.23,0.014854181643145918,0.011397067709341012,0.07013638297700935,0.00012268290476801378,0.08279789756530319,0.019367153676781355,2.9612433188402016e-06
79.04,0.01582801367025498,0.012144253237102493,0.07473448589843366,0.00013072592892863556,0.08822608246054776,0.020636853682982677,3.1553808117855086e-06
79.86,0.01684593916764197,0.012925270064249749,0.07954078315816072,0.00013913312764595817,0.09390004640462264,0.021964043562105698,3.3583085226911847e-06
80.67,0.017908792084387243,0.013740758049265972,0.08455921237951383,0.00014791138862999283,0.09982443786838882,0.02334981063221258,3.5701927027989153e-06
81.49,0.019017359045682594,0.014591320740753777,0.08979348773854402,0.00015706720873568734,0.10600364153715772,0.024795180509614153,3.7911901691350577e-06
82.30,0.020172375055269153,0.015477522080073637,0.0952470796724063,0.00016660665846871892,0.11244175435587946,0.026301111505629707,4.021447447773535e-06
83.12,0.021374519091823595,0.016399883022612943,0.1009231940869966,0.00017653534561538794,0.11914256098319635,0.027868488885075118,4.261099895957089e-06
83.93,0.022624409612913128,0.017358878088135788,0.10682475112815903,0.00018685837810911485,0.12610950873027893,0.029498119004236815,4.510270805791848e-06
84.75,0.023922599982743424,0.018354931852662026,0.11295436359307046,0.00019758032626752422,0.13334568207488065,0.03119072334948609,4.769070492749612e-06
85.56,0.02526957384264391,0.019388415396410848,0.11931431507124979,0.00020870518455659134,0.14085377685620862,0.03294693250123307,5.037595372754963e-06
86.38,0.026665740446043557,0.020459642724499082,0.12590653791790388,0.00022023633306151306,0.14863607427186237,0.03476728005158308,5.315927032192879e-06
87.19,0.028111429982558608,0.021568867179285318,0.1327325911758627,0.00023217649886764623,0.15669441481408086,0.03665219650779627,5.604131295746199e-06
88.01,0.029606888918703902,0.022716277865469387,0.13979363857600738,0.00024452771757875165,0.16503017229865272,0.038602003217422326,5.902257297546876e-06
88.82,0.031152275385616504,0.023901996111261693,0.1470904267596717,0.000257291295223508,0.17364422815587227,0.04061690635472972,6.210336561699383e-06
89.64,0.03274765464699083,0.025126071991096795,0.15462326387977846,0.00027046777082451813,0.18253694616860164,0.04269699101171723,6.5283820987945255e-06
90.45,0.034392994683128744,0.026388480937437113,0.16239199875022695,0.0002840568799263154,0.19170814785755894,0.04484221544051691,6.856387525571462e-06
91.27,0.03608816192954131,0.027689120471158686,0.17039600072502453,0.0002980575193998376,0.20115708872808852,0.047052405497305876,7.194326215389987e-06
92.08,0.03783291721085364,0.02902780708178578,0.1786341404995702,0.0003124677138599446,0.21088243560555692,0.04932724934085669,7.542150487637543e-06
92.90,0.039626911912790504,0.030404273290396112,0.1871047720360755,0.0003272845840492708,0.22088224529782366,0.051666292441502185,7.899790844598464e-06
93.71,0.041469684436701584,0.03181816492930841,0.195805715823042,0.0003425043175556232,0.2311539448326003,0.054068932958481045,8.267155264648688e-06
94.53,0.0433606569823551,0.03326903867363829,0.20473424368470836,0.00035812214224059414,0.24169431352459303,0.05653441754528488,8.644128560892344e-06
95.34,0.04529913270552198,0.03475635986041667,0.21388706536013133,0.000374132302763619,0.2524994671317446,0.059061837643664274,9.030571814514069e-06
96.16,0.04728429329713132,0.03627950063116516,0.2232603170727839,0.0003905280405878644,0.2635648443613347,0.06165012632728824,9.426321892173629e-06
96.97,0.049315197030441196,0.0378377384335618,0.2328495523099614,0.0004073015778515205,0.27488519598482025,0.06429805575560912,9.831191056701314e-06
97.79,0.05139077732168511,0.03943025491707799,0.2426497350266438,0.0004244441054799616,0.286454576814811,0.06700423529720743,1.024496668015654e-05
98.60,0.05350984184797626,0.04105613525617871,0.2526552354805413,0.00044194577590039,0.2982663407882276,0.06976711037969896,1.0667411067978562e-05
99.42,0.05567107226384629,0.04271436793283342,0.26285982889368703,0.00045979570070068035,0.3103131393862743,0.07258496212014978,1.1098261402477187e-05
100.2,0.05787302455463546,0.044403845007658815,0.2732566971210191,0.00047798195354809307,0.32258692360425245,0.07545590778584699,1.1537229813282777e-05
101.0,0.06011413006101371,0.046123362905996966,0.2838384334878325,0.0004964915786509355,0.33507894966229124,0.07837790213006507,1.1984003581588492e-05
101.9,0.06239269720423594,0.04787162374163983,0.2945970509358356,0.0005153106050077092,0.34777978862199727,0.08134873964150252,1.2438245484087517e-05
102.7,0.06470691393627392,0.049647237196725376,0.30552399359184157,0.0005344240666431146,0.36067934004360425,0.08436605773880247,1.2899594281416757e-05
103.5,0.06705485093287773,0.051448722971631465,0.316610151844096,0.0005538160289795999,0.3737668497839622,0.08742734093366766,1.336766535469797e-05
104.3,0.06943446554049985,0.05327451381337888,0.32784588097895506,0.0005734696214368322,0.3870309319977105,0.09052992597710281,1.3842051492400864e-05
105.1,0.0718436064813657,0.05512295912558699,0.3392210233959866,0.0005933670762903629,0.4004595953627366,0.09367100799380329,1.432232382829177e-05
105.9,0.07428001931208016,0.056992329156685805,0.3507249343818615,0.0006134897737554818,0.41404027350697525,0.09684764759924244,1.4808032929638453e-05
106.8,0.07674135262367753,0.058880819756951516,0.3623465113845672,0.0006338182931937562,0.42775985956737644,0.10005677898332693,1.5298710033203163e-05
107.6,0.07922516496173783,0.060786557688160554,0.3740742266887495,0.0006543324702690519,0.44160474476412703,0.10329521893321422,1.5793868424835196e-05
108.4,0.08172893243758805,0.06270760646328256,0.3858961633523097,0.0006750114598078556,0.4555608608246797,0.10655967675669582,1.629300495675773e-05
109.2,0.08425005699151991,0.06464197268657734,0.3978000542227986,0.0006958338040469945,0.4696137260436938,0.10984676505601124,1.679560169488736e-05
110.0,0.08678587526146193,0.06658761285820142,0.4097733238122662,0.0007167775058813302,0.4837484947174288,0.11315301129098407,1.7301127686841168e-05
110.8,0.08933366800192272,0.06854244060101668,0.4218031327703002,0.0007378201066562047,0.4979500096453687,0.11647487005961353,1.7809040839642356e-05
111.6,0.09189066999035848,0.07050433426138235,0.4338764246585173,0.0007589387679856234,0.5122028573487744,0.11980873601417684,1.8318789894596197e-05
112.5,0.09445408035103034,0.07247114483027088,0.4459799746962967,0.0007801103570185236,0.5264914256163417,0.12315095732166315,1.88298164853942e-05
113.3,0.0970210732201074,0.07444070412621073,0.45810044011776724,0.0008013115345234654,0.540799962951986,0.12649784956913115,1.9341557264247243e-05
114.1,0.09958880867039273,0.07641083317742574,0.4702244117546336,0.0008225188451175612,0.555112639469765,0.12984571000756487,1.985344607977503e-05
114.9,0.1021544438097134,0.07837935073721662,0.4823384664389416,0.0008437088089296466,0.5694136087567543,0.13319083202214363,2.036491618951483e-05
115.7,0.1047151439637497,0.08034408186415411,0.49442921980475285,0.0008648580139612445,0.5836870702068704,0.13652951971266594,2.0875402489272054e-05
116.5,0.10726809385230456,0.08230286649719222,0.5064833790584428,0.0008859432083926051,0.5979173313176123,0.13985810246530755,2.1384343741146384e-05
117.3,0.10981050866698175,0.08425356795518596,0.5184877952839132,0.0009069413920752613,0.6120888694377968,0.14317294939595482,2.189118478192181e-05
118.2,0.11233964495906795,0.08619408129082412,0.530429514851947,0.0009278299064576019,0.6261863924577109,0.1464704835461792,2.239537869363002e-05
119.0,0.11485281124890623,0.08812234143055121,0.542295829511959,0.0009485865222052793,0.64019489794369,0.14974719571527492,2.2896388918490778e-05
119.8,0.1173473782689154,0.0900363310340283,0.5540743247590061,0.0009691895238054864,0.6540997302368077,0.15299965781622493,2.3393691301018265e-05
120.6,0.11982078876063464,0.09193408801081322,0.5657529260902269,0.000989617790478654,0.6678866350597741,0.15622453564868155,2.3886776041028725e-05
